# time(s) -0.01
0.000000000000000000e+00 5.339999999999999858e+00
3.000000000000000000e+02 5.438162999999999414e+00
6.000000000000000000e+02 5.465303999999999718e+00
9.000000000000000000e+02 5.472723999999999478e+00
1.200000000000000000e+03 5.473673000000000677e+00
1.500000000000000000e+03 5.470995999999999526e+00
1.800000000000000000e+03 5.466766000000000680e+00
2.100000000000000000e+03 5.461736000000000146e+00
2.400000000000000000e+03 5.456655999999999729e+00
2.700000000000000000e+03 5.451402999999999999e+00
3.000000000000000000e+03 5.445991999999999500e+00
3.300000000000000000e+03 5.441088999999999842e+00
3.600000000000000000e+03 5.436284999999999812e+00
3.900000000000000000e+03 5.431481999999999921e+00
4.200000000000000000e+03 5.426243000000000372e+00
4.500000000000000000e+03 5.420852000000000004e+00
4.800000000000000000e+03 5.415390000000000370e+00
5.100000000000000000e+03 5.409677999999999543e+00
5.400000000000000000e+03 5.403872999999999927e+00
5.700000000000000000e+03 5.398023000000000238e+00
6.000000000000000000e+03 5.392774000000000179e+00
6.300000000000000000e+03 5.387698999999999572e+00
6.600000000000000000e+03 5.382683999999999358e+00
6.900000000000000000e+03 5.377691999999999695e+00
7.200000000000000000e+03 5.372709999999999653e+00
7.500000000000000000e+03 5.367733000000000310e+00
7.800000000000000000e+03 5.362973999999999464e+00
8.100000000000000000e+03 5.358283999999999381e+00
8.400000000000000000e+03 5.353622000000000547e+00
8.700000000000000000e+03 5.348971999999999838e+00
9.000000000000000000e+03 5.344330000000000247e+00
9.300000000000000000e+03 5.339691999999999439e+00
9.600000000000000000e+03 5.335058000000000078e+00
9.900000000000000000e+03 5.330426000000000109e+00
1.020000000000000000e+04 5.325795999999999530e+00
1.050000000000000000e+04 5.321166999999999980e+00
1.080000000000000000e+04 5.316540999999999961e+00
1.110000000000000000e+04 5.311913999999999803e+00
1.140000000000000000e+04 5.307685000000000208e+00
1.170000000000000000e+04 5.303577999999999903e+00
1.200000000000000000e+04 5.299516999999999811e+00
1.230000000000000000e+04 5.295269999999999477e+00
1.260000000000000000e+04 5.290969999999999729e+00
1.290000000000000000e+04 5.286650999999999989e+00
1.320000000000000000e+04 5.282530999999999644e+00
1.350000000000000000e+04 5.278471999999999831e+00
1.380000000000000000e+04 5.274435999999999680e+00
1.410000000000000000e+04 5.270824000000000176e+00
1.440000000000000000e+04 5.267345999999999862e+00
1.470000000000000000e+04 5.263923000000000130e+00
1.500000000000000000e+04 5.259919000000000011e+00
1.530000000000000000e+04 5.255742999999999832e+00
1.560000000000000000e+04 5.251507000000000147e+00
1.590000000000000000e+04 5.248066999999999815e+00
1.620000000000000000e+04 5.244870999999999839e+00
1.650000000000000000e+04 5.241768000000000427e+00
1.680000000000000000e+04 5.238298000000000343e+00
1.710000000000000000e+04 5.234723999999999933e+00
1.740000000000000000e+04 5.231114999999999959e+00
1.770000000000000000e+04 5.227697000000000038e+00
1.800000000000000000e+04 5.224337000000000231e+00
1.830000000000000000e+04 5.221000000000000085e+00
1.860000000000000000e+04 5.217858000000000551e+00
1.890000000000000000e+04 5.214776000000000522e+00
1.920000000000000000e+04 5.211716000000000015e+00
1.950000000000000000e+04 5.209280999999999828e+00
1.980000000000000000e+04 5.207046000000000063e+00
2.010000000000000000e+04 5.204890999999999934e+00
2.040000000000000000e+04 5.202980999999999412e+00
2.070000000000000000e+04 5.201159999999999783e+00
2.100000000000000000e+04 5.199380000000000557e+00
2.130000000000000000e+04 5.197829000000000477e+00
2.160000000000000000e+04 5.196358000000000033e+00
2.190000000000000000e+04 5.194923999999999431e+00
2.220000000000000000e+04 5.193934999999999746e+00
2.250000000000000000e+04 5.193094999999999573e+00
2.280000000000000000e+04 5.192318000000000211e+00
2.310000000000000000e+04 5.191982000000000319e+00
2.340000000000000000e+04 5.191794999999999938e+00
2.370000000000000000e+04 5.191670999999999481e+00
2.400000000000000000e+04 5.191578999999999944e+00
2.430000000000000000e+04 5.191508999999999929e+00
2.460000000000000000e+04 5.191451999999999956e+00
2.490000000000000000e+04 5.191607000000000305e+00
2.520000000000000000e+04 5.191835000000000200e+00
2.550000000000000000e+04 5.192091999999999707e+00
2.580000000000000000e+04 5.192768000000000050e+00
2.610000000000000000e+04 5.193582000000000143e+00
2.640000000000000000e+04 5.194455999999999740e+00
2.670000000000000000e+04 5.196165000000000589e+00
2.700000000000000000e+04 5.198152999999999579e+00
2.730000000000000000e+04 5.200256999999999685e+00
2.760000000000000000e+04 5.203228000000000186e+00
2.790000000000000000e+04 5.206494999999999429e+00
2.820000000000000000e+04 5.209890000000000576e+00
2.850000000000000000e+04 5.214163000000000103e+00
2.880000000000000000e+04 5.218738000000000099e+00
2.910000000000000000e+04 5.223447000000000173e+00
2.940000000000000000e+04 5.227809999999999846e+00
2.970000000000000000e+04 5.232083000000000261e+00
3.000000000000000000e+04 5.236333000000000126e+00
3.030000000000000000e+04 5.240177000000000085e+00
3.060000000000000000e+04 5.243891999999999776e+00
3.090000000000000000e+04 5.247562000000000282e+00
3.120000000000000000e+04 5.252416999999999447e+00
3.150000000000000000e+04 5.257646000000000264e+00
3.180000000000000000e+04 5.263020000000000032e+00
3.210000000000000000e+04 5.269665999999999961e+00
3.240000000000000000e+04 5.276735999999999649e+00
3.270000000000000000e+04 5.283981999999999957e+00
3.300000000000000000e+04 5.291547000000000445e+00
3.330000000000000000e+04 5.299248000000000403e+00
3.360000000000000000e+04 5.307025000000000325e+00
3.390000000000000000e+04 5.315051000000000414e+00
3.420000000000000000e+04 5.323176999999999381e+00
3.450000000000000000e+04 5.331356999999999680e+00
3.480000000000000000e+04 5.339572000000000429e+00
3.510000000000000000e+04 5.347812000000000232e+00
3.540000000000000000e+04 5.356072000000000166e+00
3.570000000000000000e+04 5.363946000000000325e+00
3.600000000000000000e+04 5.371703000000000117e+00
3.630000000000000000e+04 5.379419999999999646e+00
3.660000000000000000e+04 5.388122000000000078e+00
3.690000000000000000e+04 5.397132000000000041e+00
3.720000000000000000e+04 5.406263000000000041e+00
3.750000000000000000e+04 5.415048000000000528e+00
3.780000000000000000e+04 5.423738000000000170e+00
3.810000000000000000e+04 5.432400000000000340e+00
3.840000000000000000e+04 5.441254999999999953e+00
3.870000000000000000e+04 5.450172000000000239e+00
3.900000000000000000e+04 5.459116000000000746e+00
3.930000000000000000e+04 5.467667999999999751e+00
3.960000000000000000e+04 5.476100999999999885e+00
3.990000000000000000e+04 5.484488999999999947e+00
4.020000000000000000e+04 5.492641000000000773e+00
4.050000000000000000e+04 5.500712999999999298e+00
4.080000000000000000e+04 5.508748999999999896e+00
4.110000000000000000e+04 5.517168999999999990e+00
4.140000000000000000e+04 5.525705000000000311e+00
4.170000000000000000e+04 5.534283999999999537e+00
4.200000000000000000e+04 5.544292999999999694e+00
4.230000000000000000e+04 5.554761000000000060e+00
4.260000000000000000e+04 5.565411000000000108e+00
4.290000000000000000e+04 5.575344999999999551e+00
4.320000000000000000e+04 5.585073000000000398e+00
4.350000000000000000e+04 5.594735000000000014e+00
4.380000000000000000e+04 5.607150999999999996e+00
4.410000000000000000e+04 5.620432000000000095e+00
4.440000000000000000e+04 5.634044000000000274e+00
4.470000000000000000e+04 5.646412000000000653e+00
4.500000000000000000e+04 5.658419000000000310e+00
4.530000000000000000e+04 5.670302999999999649e+00
4.560000000000000000e+04 5.681937999999999711e+00
4.590000000000000000e+04 5.693484999999999907e+00
4.620000000000000000e+04 5.704992999999999981e+00
4.650000000000000000e+04 5.717270000000000074e+00
4.680000000000000000e+04 5.729786999999999964e+00
4.710000000000000000e+04 5.742392999999999859e+00
4.740000000000000000e+04 5.754551999999999445e+00
4.770000000000000000e+04 5.766601000000000532e+00
4.800000000000000000e+04 5.778630000000000599e+00
4.830000000000000000e+04 5.787691999999999837e+00
4.860000000000000000e+04 5.795793999999999890e+00
4.890000000000000000e+04 5.803517000000000259e+00
4.920000000000000000e+04 5.810458000000000567e+00
4.950000000000000000e+04 5.817099999999999937e+00
4.980000000000000000e+04 5.823593999999999937e+00
5.010000000000000000e+04 5.828005999999999354e+00
5.040000000000000000e+04 5.831711000000000311e+00
5.070000000000000000e+04 5.835113999999999912e+00
5.100000000000000000e+04 5.841111999999999860e+00
5.130000000000000000e+04 5.847882000000000247e+00
5.160000000000000000e+04 5.854919000000000651e+00
5.190000000000000000e+04 5.857687000000000310e+00
5.220000000000000000e+04 5.859099999999999753e+00
5.250000000000000000e+04 5.859983999999999860e+00
5.280000000000000000e+04 5.861406999999999812e+00
5.310000000000000000e+04 5.862938999999999901e+00
5.340000000000000000e+04 5.864475999999999800e+00
5.370000000000000000e+04 5.866192999999999991e+00
5.400000000000000000e+04 5.867950000000000443e+00
5.430000000000000000e+04 5.869712999999999958e+00
5.460000000000000000e+04 5.872260999999999953e+00
5.490000000000000000e+04 5.875058000000000114e+00
5.520000000000000000e+04 5.877949000000000090e+00
5.550000000000000000e+04 5.880487999999999715e+00
5.580000000000000000e+04 5.882921999999999763e+00
5.610000000000000000e+04 5.885316999999999688e+00
5.640000000000000000e+04 5.888675000000000104e+00
5.670000000000000000e+04 5.892342000000000191e+00
5.700000000000000000e+04 5.896128000000000036e+00
5.730000000000000000e+04 5.899189999999999934e+00
5.760000000000000000e+04 5.902026999999999468e+00
5.790000000000000000e+04 5.904783000000000115e+00
5.820000000000000000e+04 5.907309999999999839e+00
5.850000000000000000e+04 5.909755000000000535e+00
5.880000000000000000e+04 5.912162000000000361e+00
5.910000000000000000e+04 5.915719000000000172e+00
5.940000000000000000e+04 5.919647000000000325e+00
5.970000000000000000e+04 5.923718000000000039e+00
6.000000000000000000e+04 5.926301000000000485e+00
6.030000000000000000e+04 5.928412999999999933e+00
6.060000000000000000e+04 5.930344999999999978e+00
6.090000000000000000e+04 5.932387999999999550e+00
6.120000000000000000e+04 5.934447000000000472e+00
6.150000000000000000e+04 5.936503000000000085e+00
6.180000000000000000e+04 5.938951999999999565e+00
6.210000000000000000e+04 5.941527999999999921e+00
6.240000000000000000e+04 5.944155999999999551e+00
6.270000000000000000e+04 5.946029000000000231e+00
6.300000000000000000e+04 5.947661000000000087e+00
6.330000000000000000e+04 5.949195999999999707e+00
6.360000000000000000e+04 5.950099999999999945e+00
6.390000000000000000e+04 5.950784999999999769e+00
6.420000000000000000e+04 5.951373000000000246e+00
6.450000000000000000e+04 5.952301000000000286e+00
6.480000000000000000e+04 5.953325000000000422e+00
6.510000000000000000e+04 5.954377000000000031e+00
6.540000000000000000e+04 5.954447000000000045e+00
6.570000000000000000e+04 5.954194000000000209e+00
6.600000000000000000e+04 5.953808000000000433e+00
6.630000000000000000e+04 5.951991000000000476e+00
6.660000000000000000e+04 5.949689000000000227e+00
6.690000000000000000e+04 5.947181999999999746e+00
6.720000000000000000e+04 5.945344000000000406e+00
6.750000000000000000e+04 5.943694999999999951e+00
6.780000000000000000e+04 5.942102999999999469e+00
6.810000000000000000e+04 5.939753999999999756e+00
6.840000000000000000e+04 5.937155000000000626e+00
6.870000000000000000e+04 5.934455000000000702e+00
6.900000000000000000e+04 5.932078999999999880e+00
6.930000000000000000e+04 5.929793000000000092e+00
6.960000000000000000e+04 5.927533000000000385e+00
6.990000000000000000e+04 5.925084000000000017e+00
7.020000000000000000e+04 5.922570999999999586e+00
7.050000000000000000e+04 5.920028000000000290e+00
7.080000000000000000e+04 5.918243000000000364e+00
7.110000000000000000e+04 5.916699999999999626e+00
7.140000000000000000e+04 5.915251999999999732e+00
7.170000000000000000e+04 5.913266000000000133e+00
7.200000000000000000e+04 5.911111000000000004e+00
7.230000000000000000e+04 5.908892999999999951e+00
7.260000000000000000e+04 5.906277999999999473e+00
7.290000000000000000e+04 5.903533000000000364e+00
7.320000000000000000e+04 5.900737000000000343e+00
7.350000000000000000e+04 5.897725000000000328e+00
7.380000000000000000e+04 5.894637999999999600e+00
7.410000000000000000e+04 5.891519999999999868e+00
7.440000000000000000e+04 5.888958000000000581e+00
7.470000000000000000e+04 5.886573999999999529e+00
7.500000000000000000e+04 5.884261000000000408e+00
7.530000000000000000e+04 5.881793000000000049e+00
7.560000000000000000e+04 5.879284999999999428e+00
7.590000000000000000e+04 5.876765999999999934e+00
7.620000000000000000e+04 5.874380000000000379e+00
7.650000000000000000e+04 5.872023999999999688e+00
7.680000000000000000e+04 5.869672000000000445e+00
7.710000000000000000e+04 5.867505999999999666e+00
7.740000000000000000e+04 5.865399000000000029e+00
7.770000000000000000e+04 5.863313999999999915e+00
7.800000000000000000e+04 5.860856000000000066e+00
7.830000000000000000e+04 5.858273999999999759e+00
7.860000000000000000e+04 5.855639000000000038e+00
7.890000000000000000e+04 5.852978000000000236e+00
7.920000000000000000e+04 5.850300999999999974e+00
7.950000000000000000e+04 5.847612000000000698e+00
7.980000000000000000e+04 5.844953000000000287e+00
8.010000000000000000e+04 5.842312999999999867e+00
8.040000000000000000e+04 5.839681999999999817e+00
8.070000000000000000e+04 5.837252999999999581e+00
8.100000000000000000e+04 5.834891999999999967e+00
8.130000000000000000e+04 5.832562000000000246e+00
8.160000000000000000e+04 5.830058000000000185e+00
8.190000000000000000e+04 5.827503000000000100e+00
8.220000000000000000e+04 5.824930999999999415e+00
8.250000000000000000e+04 5.823301999999999978e+00
8.280000000000000000e+04 5.821987000000000023e+00
8.310000000000000000e+04 5.820796999999999777e+00
8.340000000000000000e+04 5.818347000000000158e+00
8.370000000000000000e+04 5.815494999999999415e+00
8.400000000000000000e+04 5.812490000000000379e+00
8.430000000000000000e+04 5.809604000000000212e+00
8.460000000000000000e+04 5.806744999999999379e+00
8.490000000000000000e+04 5.803888999999999854e+00
8.520000000000000000e+04 5.800472000000000072e+00
8.550000000000000000e+04 5.796866000000000518e+00
8.580000000000000000e+04 5.793182999999999971e+00
8.610000000000000000e+04 5.789276999999999340e+00
8.640000000000000000e+04 5.785287999999999542e+00
8.670000000000000000e+04 5.781260999999999761e+00
8.700000000000000000e+04 5.777701999999999671e+00
8.730000000000000000e+04 5.774275000000000269e+00
8.760000000000000000e+04 5.770883999999999681e+00
8.790000000000000000e+04 5.766938999999999815e+00
8.820000000000000000e+04 5.762799000000000227e+00
8.850000000000000000e+04 5.758573000000000164e+00
8.880000000000000000e+04 5.754298000000000357e+00
8.910000000000000000e+04 5.749990000000000379e+00
8.940000000000000000e+04 5.745655999999999430e+00
8.970000000000000000e+04 5.741493000000000180e+00
9.000000000000000000e+04 5.737377999999999645e+00
9.030000000000000000e+04 5.733274999999999899e+00
9.060000000000000000e+04 5.728632000000000168e+00
9.090000000000000000e+04 5.723816000000000237e+00
9.120000000000000000e+04 5.718931999999999682e+00
9.150000000000000000e+04 5.713632999999999740e+00
9.180000000000000000e+04 5.708186000000000426e+00
9.210000000000000000e+04 5.702675000000000161e+00
9.240000000000000000e+04 5.697894999999999932e+00
9.270000000000000000e+04 5.693347000000000158e+00
9.300000000000000000e+04 5.688886000000000109e+00
9.330000000000000000e+04 5.683696000000000303e+00
9.360000000000000000e+04 5.678270999999999624e+00
9.390000000000000000e+04 5.672754000000000296e+00
9.420000000000000000e+04 5.667583999999999733e+00
9.450000000000000000e+04 5.662520999999999916e+00
9.480000000000000000e+04 5.657494999999999941e+00
9.510000000000000000e+04 5.652293000000000234e+00
9.540000000000000000e+04 5.647034999999999805e+00
9.570000000000000000e+04 5.641754999999999853e+00
9.600000000000000000e+04 5.636270999999999809e+00
9.630000000000000000e+04 5.630719000000000030e+00
9.660000000000000000e+04 5.625135000000000218e+00
9.690000000000000000e+04 5.619534999999999947e+00
9.720000000000000000e+04 5.613926000000000194e+00
9.750000000000000000e+04 5.608308000000000071e+00
9.780000000000000000e+04 5.603087000000000373e+00
9.810000000000000000e+04 5.597998999999999725e+00
9.840000000000000000e+04 5.592966999999999800e+00
9.870000000000000000e+04 5.587962000000000096e+00
9.900000000000000000e+04 5.582975000000000243e+00
9.930000000000000000e+04 5.577999999999999403e+00
9.960000000000000000e+04 5.572842999999999769e+00
9.990000000000000000e+04 5.567628000000000021e+00
1.002000000000000000e+05 5.562394000000000283e+00
1.005000000000000000e+05 5.557344000000000506e+00
1.008000000000000000e+05 5.552353000000000094e+00
1.011000000000000000e+05 5.547387000000000512e+00
1.014000000000000000e+05 5.542629999999999946e+00
1.017000000000000000e+05 5.537949000000000233e+00
1.020000000000000000e+05 5.533301999999999943e+00
1.023000000000000000e+05 5.529054000000000357e+00
1.026000000000000000e+05 5.524945999999999913e+00
1.029000000000000000e+05 5.520898000000000749e+00
1.032000000000000000e+05 5.516695999999999600e+00
1.035000000000000000e+05 5.512451000000000434e+00
1.038000000000000000e+05 5.508198000000000150e+00
1.041000000000000000e+05 5.504321000000000019e+00
1.044000000000000000e+05 5.500573999999999408e+00
1.047000000000000000e+05 5.496879999999999988e+00
1.050000000000000000e+05 5.492989999999999817e+00
1.053000000000000000e+05 5.489029000000000380e+00
1.056000000000000000e+05 5.485037000000000162e+00
1.059000000000000000e+05 5.481217000000000006e+00
1.062000000000000000e+05 5.477449000000000012e+00
1.065000000000000000e+05 5.473698000000000619e+00
1.068000000000000000e+05 5.470144000000000339e+00
1.071000000000000000e+05 5.466655999999999516e+00
1.074000000000000000e+05 5.463194999999999801e+00
1.077000000000000000e+05 5.459557000000000215e+00
1.080000000000000000e+05 5.455865000000000187e+00
1.083000000000000000e+05 5.452151000000000636e+00
1.086000000000000000e+05 5.448984999999999523e+00
1.089000000000000000e+05 5.445997000000000199e+00
1.092000000000000000e+05 5.443077999999999861e+00
1.095000000000000000e+05 5.440574999999999939e+00
1.098000000000000000e+05 5.438220999999999528e+00
1.101000000000000000e+05 5.435932000000000208e+00
1.104000000000000000e+05 5.434256999999999671e+00
1.107000000000000000e+05 5.432799000000000156e+00
1.110000000000000000e+05 5.431437999999999988e+00
1.113000000000000000e+05 5.430902999999999814e+00
1.116000000000000000e+05 5.430661999999999878e+00
1.119000000000000000e+05 5.430551999999999602e+00
1.122000000000000000e+05 5.431328999999999851e+00
1.125000000000000000e+05 5.432427999999999813e+00
1.128000000000000000e+05 5.433676000000000172e+00
1.131000000000000000e+05 5.435582000000000136e+00
1.134000000000000000e+05 5.437730000000000175e+00
1.137000000000000000e+05 5.439992000000000161e+00
1.140000000000000000e+05 5.443074000000000190e+00
1.143000000000000000e+05 5.446447000000000038e+00
1.146000000000000000e+05 5.449949000000000154e+00
1.149000000000000000e+05 5.454080999999999513e+00
1.152000000000000000e+05 5.458441000000000543e+00
1.155000000000000000e+05 5.462902999999999842e+00
1.158000000000000000e+05 5.467830000000000190e+00
1.161000000000000000e+05 5.472942999999999891e+00
1.164000000000000000e+05 5.478155000000000108e+00
1.167000000000000000e+05 5.484365000000000379e+00
1.170000000000000000e+05 5.490942999999999685e+00
1.173000000000000000e+05 5.497691999999999801e+00
1.176000000000000000e+05 5.505109000000000030e+00
1.179000000000000000e+05 5.512790999999999997e+00
1.182000000000000000e+05 5.520608000000000182e+00
1.185000000000000000e+05 5.529271999999999743e+00
1.188000000000000000e+05 5.538257999999999903e+00
1.191000000000000000e+05 5.547404000000000224e+00
1.194000000000000000e+05 5.556738000000000177e+00
